Erdmodell  STUTPREM mit Daempfung bei 1 Hz                              

             number of layers:       211
            earth radius (km):  6371.000     reference frequency (Hz):     1.000

        Zb      alpha       beta        rho     Qalpha      Qbeta         Rb
-----------------------------------------------------------------------------
     0.000    0.33180    0.00000   0.001300   1000.000     -1.000   6371.000
     7.510    5.80342    3.20189   2.598468   1456.201    600.000   6363.495
    15.018    5.81026    3.20566   2.595407   1456.201    600.000   6356.000
    19.733    6.81857    3.91065   2.892102   1350.114    600.000   6351.298
    24.447    6.82362    3.91355   2.889962   1350.114    600.000   6346.600
    52.486    8.15106    4.51303   3.358895   1446.217    600.000   6318.730
    80.507    8.16964    4.52258   3.341160   1446.678    600.000   6291.000
   134.040    8.19682    4.53655   3.315556    195.489     80.000   6238.360
   205.701    8.23888    4.55816   3.276670    195.631     80.000   6168.584
   223.888    8.26929    4.57379   3.249040    195.733     80.000   6151.000
   249.967    8.90836    4.82899   3.317581    363.593    143.000   6125.873
   302.793    9.03988    4.88671   3.318754    365.603    143.000   6075.290
   355.833    9.21756    4.96469   3.319918    368.252    143.000   6024.922
   397.815    9.37828    5.03522   3.320560    370.586    143.000   5985.350
   413.109    9.47572    5.07799   3.320770    371.973    143.000   5971.000
   427.098    9.79235    5.28912   3.493851    366.202    143.000   5957.903
   455.098    9.93236    5.36794   3.505424    365.768    143.000   5931.776
   483.098   10.11977    5.47345   3.520576    365.208    143.000   5905.764
   511.597   10.30968    5.58036   3.535526    364.662    143.000   5879.405
   540.597   10.50383    5.68966   3.550395    364.126    143.000   5852.704
   570.096   10.70225    5.80136   3.565170    363.599    143.000   5825.667
   600.095   10.90500    5.91551   3.579838    363.082    143.000   5798.300
   622.632   11.08480    6.01672   3.592497    362.640    143.000   5777.825
   630.162   11.18802    6.07484   3.599621    362.393    143.000   5771.000
   663.702   11.26943    6.11857   3.595115    362.448    143.000   5740.699
   702.539   11.38984    6.18152   3.581572    362.730    143.000   5705.811
   707.913   11.46369    6.22014   3.573299    362.901    143.000   5701.000
   724.481   12.05631    6.67671   3.919085    757.087    312.000   5686.193
   757.476   12.18064    6.77535   3.916114    750.529    312.000   5656.821
   790.975   12.34811    6.90829   3.911919    742.020    312.000   5627.155
   814.863   12.49328    7.02359   3.908105    734.927    312.000   5606.095
   821.794   12.57148    7.08573   3.905985    731.211    312.000   5600.000
   854.958   12.65230    7.13000   3.903135    731.470    312.000   5570.926
   921.441   12.84191    7.22144   3.895687    734.555    312.000   5513.094
   989.431   13.09715    7.34485   3.884885    738.534    312.000   5454.572
  1058.920   13.35744    7.47107   3.872960    742.393    312.000   5395.402
  1129.914   13.62292    7.60018   3.859908    746.136    312.000   5335.613
  1202.405   13.89376    7.73226   3.845730    749.764    312.000   5275.246
  1276.402   14.17012    7.86739   3.830431    753.281    312.000   5214.331
  1351.896   14.45222    8.00567   3.814016    756.691    312.000   5152.908
  1428.391   14.73932    8.14673   3.796555    759.989    312.000   5091.408
  1506.390   15.03166    8.29070   3.778064    763.180    312.000   5029.455
  1585.886   15.33046    8.43814   3.758501    766.281    312.000   4967.088
  1666.384   15.63503    8.58873   3.737949    769.287    312.000   4904.724
  1747.882   15.94471    8.74210   3.716495    772.197    312.000   4842.382
  1830.883   16.26078    8.89888   3.694101    775.028    312.000   4779.705
  1915.382   16.58453    9.05969   3.670723    777.793    312.000   4716.730
  2000.881   16.91534    9.22420   3.646453    780.492    312.000   4653.854
  2087.381   17.25262    9.39208   3.621393    783.123    312.000   4591.095
  2174.881   17.59671    9.56350   3.595575    785.694    312.000   4528.472
  2263.381   17.94802    9.73862   3.569029    788.212    312.000   4466.001
  2352.380   18.30590    9.91709   3.541865    790.679    312.000   4404.048
  2441.880   18.66973   10.09856   3.514195    793.094    312.000   4342.612
  2532.381   19.04089   10.28370   3.485974    795.472    312.000   4281.360
  2623.380   19.41976   10.47267   3.457236    797.819    312.000   4220.643
  2714.882   19.80570   10.66511   3.428091    800.135    312.000   4160.459
  2806.881   20.19906   10.86117   3.398571    802.427    312.000   4100.812
  2899.382   20.60023   11.06101   3.368706    804.700    312.000   4041.702
  2992.382   21.00958   11.26477   3.338524    806.960    312.000   3983.132
  3085.883   21.42750   11.47263   3.308053    809.211    312.000   3925.102
  3179.883   21.85439   11.68474   3.277320    811.459    312.000   3867.615
  3273.883   22.28945   11.90069   3.246432    813.701    312.000   3810.970
  3367.882   22.73185   12.12003   3.215494    815.936    312.000   3755.155
  3462.384   23.18310   12.34347   3.184448    818.173    312.000   3699.865
  3546.871   23.61884   12.55896   3.154963    820.296    312.000   3651.125
  3583.839   23.91854   12.70702   3.134961    821.735    312.000   3630.000
  3642.956   24.12927   12.81161   3.119145    822.666    312.000   3596.473
  3760.954   24.48863   12.99035   3.090018    824.173    312.000   3530.475
  3836.277   24.88637   13.18794   3.058272    825.824    312.000   3488.981
  3852.698   25.07732   13.28270   3.043228    826.612    312.000   3480.000
  3889.283   14.83843    0.00000   5.402662  57823.000     -1.000   3460.073
  3962.780   15.06095    0.00000   5.381690  57823.000     -1.000   3420.387
  4037.276   15.36091    0.00000   5.352676  57823.000     -1.000   3380.625
  4112.773   15.66601    0.00000   5.322322  57823.000     -1.000   3340.801
  4189.271   15.97637    0.00000   5.290655  57823.000     -1.000   3300.927
  4267.270   16.29313    0.00000   5.257592  57823.000     -1.000   3260.761
  4346.768   16.61750    0.00000   5.223047  57823.000     -1.000   3220.325
  4427.266   16.94859    0.00000   5.187150  57823.000     -1.000   3179.892
  4508.764   17.28554    0.00000   5.150042  57823.000     -1.000   3139.474
  4591.263   17.62852    0.00000   5.111760  57823.000     -1.000   3099.083
  4674.761   17.97768    0.00000   5.072339  57823.000     -1.000   3058.731
  4759.762   18.33429    0.00000   5.031694  57823.000     -1.000   3018.193
  4846.261   18.69959    0.00000   4.989736  57823.000     -1.000   2977.492
  4933.760   19.07276    0.00000   4.946622  57823.000     -1.000   2936.879
  5022.259   19.45294    0.00000   4.902512  57823.000     -1.000   2896.365
  5111.758   19.84034    0.00000   4.857449  57823.000     -1.000   2855.961
  5202.258   20.23519    0.00000   4.811474  57823.000     -1.000   2815.680
  5293.757   20.63772    0.00000   4.764631  57823.000     -1.000   2775.530
  5386.257   21.04816    0.00000   4.716961  57823.000     -1.000   2735.524
  5479.757   21.46676    0.00000   4.668507  57823.000     -1.000   2695.671
  5574.257   21.89379    0.00000   4.619313  57823.000     -1.000   2655.981
  5669.757   22.32951    0.00000   4.569422  57823.000     -1.000   2616.466
  5766.257   22.77419    0.00000   4.518875  57823.000     -1.000   2577.133
  5863.757   23.22813    0.00000   4.467715  57823.000     -1.000   2537.994
  5962.257   23.69163    0.00000   4.415985  57823.000     -1.000   2499.056
  6061.256   24.16378    0.00000   4.363859  57823.000     -1.000   2460.524
  6160.757   24.64366    0.00000   4.311509  57823.000     -1.000   2422.394
  6261.257   25.13274    0.00000   4.258844  57823.000     -1.000   2384.482
  6362.758   25.63256    0.00000   4.205771  57823.000     -1.000   2346.794
  6465.258   26.14346    0.00000   4.152329  57823.000     -1.000   2309.340
  6568.258   26.66453    0.00000   4.098687  57823.000     -1.000   2272.305
  6671.758   27.19479    0.00000   4.045012  57823.000     -1.000   2235.688
  6776.259   27.73586    0.00000   3.991206  57823.000     -1.000   2199.316
  6881.258   28.28805    0.00000   3.937306  57823.000     -1.000   2163.367
  6986.759   28.85038    0.00000   3.883470  57823.000     -1.000   2127.837
  7093.260   29.42452    0.00000   3.829601  57823.000     -1.000   2092.563
  7200.259   30.01083    0.00000   3.775732  57823.000     -1.000   2057.712
  7307.760   30.60830    0.00000   3.722014  57823.000     -1.000   2023.283
  7415.760   31.21724    0.00000   3.668476  57823.000     -1.000   1989.274
  7524.260   31.83800    0.00000   3.615140  57823.000     -1.000   1955.683
  7633.260   32.47092    0.00000   3.562030  57823.000     -1.000   1922.508
  7742.761   33.11636    0.00000   3.509168  57823.000     -1.000   1889.747
  7852.761   33.77467    0.00000   3.456574  57823.000     -1.000   1857.400
  7963.262   34.44622    0.00000   3.404269  57823.000     -1.000   1825.462
  8074.261   35.13140    0.00000   3.352271  57823.000     -1.000   1793.933
  8185.762   35.83060    0.00000   3.300597  57823.000     -1.000   1762.810
  8297.762   36.54419    0.00000   3.249265  57823.000     -1.000   1732.091
  8410.263   37.27261    0.00000   3.198289  57823.000     -1.000   1701.774
  8523.263   38.01625    0.00000   3.147684  57823.000     -1.000   1671.856
  8636.262   38.77385    0.00000   3.097575  57823.000     -1.000   1642.465
  8749.763   39.54578    0.00000   3.047970  57823.000     -1.000   1613.463
  8863.763   40.33414    0.00000   2.998770  57823.000     -1.000   1584.849
  8977.763   41.13759    0.00000   2.950091  57823.000     -1.000   1556.743
  9092.264   41.95653    0.00000   2.901940  57823.000     -1.000   1529.015
  9207.264   42.79317    0.00000   2.854220  57823.000     -1.000   1501.663
  9322.263   43.64611    0.00000   2.807041  57823.000     -1.000   1474.800
  9437.263   44.51387    0.00000   2.760508  57823.000     -1.000   1448.418
  9552.764   45.39869    0.00000   2.714520  57823.000     -1.000   1422.396
  9668.764   46.30295    0.00000   2.668983  57823.000     -1.000   1396.732
  9784.764   47.22517    0.00000   2.624000  57823.000     -1.000   1371.531
  9900.764   48.16375    0.00000   2.579668  57823.000     -1.000   1346.785
 10017.265   49.12110    0.00000   2.535889  57823.000     -1.000   1322.381
 10134.264   50.09979    0.00000   2.492572  57823.000     -1.000   1298.318
 10251.264   51.09822    0.00000   2.449813  57823.000     -1.000   1274.693
 10368.264   52.11468    0.00000   2.407700  57823.000     -1.000   1251.498
 10474.810   53.10278    0.00000   2.368064  57823.000     -1.000   1230.742
 10522.833   53.79555    0.00000   2.340984  57823.000     -1.000   1221.500
 10580.393   57.79195   18.36802   2.436679    445.674     84.600   1210.514
 10695.393   58.61342   18.64164   2.405542    445.276     84.600   1188.860
 10810.894   59.72674   19.01224   2.364477    444.761     84.600   1167.501
 10926.893   60.86457   19.39071   2.323865    444.265     84.600   1146.436
 11042.893   62.02500   19.77641   2.283795    443.786     84.600   1125.751
 11159.394   63.20857   20.16952   2.244264    443.325     84.600   1105.352
 11276.394   64.41841   20.57109   2.205189    442.880     84.600   1085.238
 11393.394   65.65253   20.98044   2.166651    442.451     84.600   1065.491
 11510.895   66.91152   21.39777   2.128650    442.037     84.600   1046.020
 11628.895   68.19869   21.82417   2.091102    441.638     84.600   1026.824
 11746.895   69.51195   22.25895   2.054086    441.253     84.600   1007.981
 11864.895   70.84905   22.70137   2.017677    440.883     84.600    989.484
 11983.396   72.21338   23.15254   1.981791    440.527     84.600    971.249
 12102.396   73.60852   23.61365   1.946351    440.182     84.600    953.276
 12221.396   75.03224   24.08396   1.911429    439.850     84.600    935.636
 12340.396   76.48214   24.56267   1.877095    439.531     84.600    918.322
 12459.897   77.96186   25.05098   1.843268    439.224     84.600    901.257
 12579.897   79.47528   25.55018   1.809878    438.927     84.600    884.441
 12699.897   81.02001   26.05946   1.776990    438.641     84.600    867.938
 12819.897   82.59348   26.57800   1.744667    438.366     84.600    851.743
 12940.398   84.19965   27.10707   1.712835    438.102     84.600    835.785
 13061.398   85.84267   27.64807   1.681427    437.846     84.600    820.061
 13182.398   87.52002   28.20014   1.650504    437.600     84.600    804.633
 13303.398   89.22894   28.76239   1.620123    437.363     84.600    789.495
 13424.398   90.97004   29.33501   1.590276    437.135     84.600    774.643
 13545.398   92.74395   29.91821   1.560956    436.916     84.600    760.069
 13666.899   94.55511   30.51345   1.532095    436.705     84.600    745.711
 13788.899   96.40821   31.12226   1.503631    436.501     84.600    731.567
 13910.899   98.30040   31.74372   1.475620    436.305     84.600    717.692
 14032.898  100.22864   32.37682   1.448111    436.117     84.600    704.079
 14154.898  102.19364   33.02180   1.421097    435.935     84.600    690.725
 14276.898  104.19611   33.67888   1.394570    435.761     84.600    677.624
 14398.898  106.23679   34.34831   1.368523    435.593     84.600    664.771
 14520.898  108.31643   35.03034   1.342947    435.432     84.600    652.162
 14643.399  110.44019   35.72666   1.317784    435.277     84.600    639.742
 14766.399  112.61356   36.43906   1.292979    435.127     84.600    627.510
 14889.399  114.83327   37.16648   1.268579    434.983     84.600    615.511
 15012.399  117.09578   37.90775   1.244627    434.844     84.600    603.742
 15135.399  119.40193   38.66315   1.221116    434.711     84.600    592.198
 15258.399  121.75260   39.43296   1.198038    434.582     84.600    580.874
 15381.399  124.14864   40.21747   1.175387    434.459     84.600    569.767
 15504.399  126.59096   41.01697   1.153154    434.340     84.600    558.873
 15627.399  129.08047   41.83175   1.131333    434.226     84.600    548.187
 15750.900  131.62332   42.66385   1.109873    434.117     84.600    537.662
 15874.900  134.22605   43.51538   1.088727    434.011     84.600    527.299
 15998.900  136.88482   44.38510   1.067935    433.908     84.600    517.135
 16122.900  139.59543   45.27162   1.047533    433.810     84.600    507.168
 16246.900  142.35893   46.17530   1.027514    433.716     84.600    497.392
 16370.900  145.17636   47.09647   1.007870    433.625     84.600    487.805
 16494.900  148.04879   48.03549   0.988597    433.538     84.600    478.402
 16618.900  150.97730   48.99270   0.969686    433.454     84.600    469.181
 16742.900  153.96301   49.96847   0.951131    433.374     84.600    460.138
 16866.900  157.00704   50.96316   0.932926    433.296     84.600    451.268
 16990.900  160.11055   51.97717   0.915065    433.222     84.600    442.570
 17114.900  163.27471   53.01086   0.897542    433.150     84.600    434.040
 17238.900  166.50073   54.06464   0.880349    433.081     84.600    425.674
 17362.900  169.78982   55.13890   0.863482    433.015     84.600    417.469
 17486.900  173.14324   56.23405   0.846935    432.951     84.600    409.422
 17610.900  176.56224   57.35050   0.830700    432.890     84.600    401.530
 17734.900  180.04814   58.48867   0.814774    432.831     84.600    393.791
 17859.401  183.60951   59.65138   0.799118    432.775     84.600    386.170
 17984.401  187.25548   60.84160   0.783699    432.720     84.600    378.667
 18109.401  190.98073   62.05758   0.768545    432.667     84.600    371.310
 18234.401  194.77950   63.29746   0.753681    432.617     84.600    364.096
 18359.401  198.65325   64.56170   0.739102    432.568     84.600    357.022
 18484.401  202.60348   65.85079   0.724803    432.521     84.600    350.085
 18609.401  206.63170   67.16524   0.710777    432.476     84.600    343.284
 18734.401  210.73947   68.50554   0.697021    432.433     84.600    336.614
 18859.401  214.92836   69.87221   0.683530    432.391     84.600    330.074
 18984.401  219.20000   71.26579   0.670297    432.351     84.600    323.661
 19109.401  223.55602   72.68679   0.657319    432.313     84.600    317.373
 19234.401  227.99810   74.13578   0.644591    432.276     84.600    311.206
 19359.401  232.52795   75.61331   0.632107    432.240     84.600    305.160
 19444.951  236.41034   76.87959   0.621775    432.212     84.600    301.090
halfspace:  238.43831   77.54100   0.616507    432.197     84.600    300.000

     par   units  description
----------------------------------------------------------------------------
      Zb      km  bottom-of-layer depth
   alpha    km/s  P-wave layer velocity
    beta    km/s  S-wave layer velocity
     rho  g/cm^3  layer density
  Qalpha          quality factor related to alpha
   Qbeta          quality factor related to beta
      Rb      km  radius corresponding to bottom of layer

amplitude correction factors depending on source depth are
  source depth  transform. exp.     explosion corr.   double-couple corr.
        100.km               -1             1.01582               1.03189
        100.km               -1             1.01582               1.03189
        600.km               -1             1.09875               1.20726
        600.km               -1             1.09875               1.20726


This file was generated by:
CHOPMOD   V1.9   spherical --> flat earth                             

Minimum allowed relative parameter stepsize: 0.0200
Minimum processed radius:  300.000km
Scanning stepsize:    1.000km

A reference frequency of 0Hz means values are frequency independent.
